TITLE	
DATA TYPE	
ORIGIN	JASCO
OWNER	
DATE	17/09/15
TIME	13:17:00
SPECTROMETER/DATA SYSTEM	JASCO Corp., V-770, Rev. 1.00
RESOLUTION	
DELTAX	-1
XUNITS	NANOMETERS
YUNITS	TRANSMITTANCE
FIRSTX	2700
LASTX	190
NPOINTS	2511
FIRSTY	6.83223
MAXY	21.447
MINY	-8.42365
XYDATA
2700	6.83223
2699	-8.42365
2698	-6.02015
2697	3.15817
2696	5.25954
2695	-3.63043
2694	-3.2518
2693	21.447
2692	4.91007
2691	7.04767
2690	2.1368
2689	4.14651
2688	2.01437
2687	1.18145
2686	1.24241
2685	0.0764439
2684	-1.76942
2683	-1.75287
2682	-0.267648
2681	-0.421556
2680	0.588163
2679	1.5012
2678	3.92609
2677	1.56344
2676	0.136911
2675	0.903335
2674	3.87642
2673	0.86307
2672	0.296961
2671	0.78903
2670	0.00446487
2669	1.83516
2668	1.1367
2667	-1.52381
2666	-1.465
2665	-2.40442
2664	7.00187
2663	3.77096
2662	1.06402
2661	1.51274
2660	0.33264
2659	2.60375
2658	0.611097
2657	0.148237
2656	0.243366
2655	0.212863
2654	-0.101341
2653	-0.553752
2652	-0.479902
2651	-0.328968
2650	-0.157364
2649	-0.327
2648	-0.570343
2647	-0.151204
2646	0.151417
2645	-0.201324
2644	0.853017
2643	0.682824
2642	0.221185
2641	0.253113
2640	0.982098
2639	1.08453
2638	0.193986
2637	0.0385728
2636	0.127696
2635	0.00585843
2634	0.387254
2633	0.115337
2632	-0.446299
2631	-0.381038
2630	-0.909275
2629	-0.852664
2628	1.42909
2627	-0.395891
2626	1.11914
2625	-0.0189734
2624	0.683608
2623	0.0511774
2622	0.338075
2621	-0.0840995
2620	0.559789
2619	-0.337123
2618	0.483514
2617	-0.728419
2616	-0.653177
2615	1.84697
2614	-1.13633
2613	-0.778869
2612	-0.034403
2611	0.1891
2610	0.700045
2609	0.175313
2608	0.473911
2607	0.176585
2606	1.45973
2605	-0.287167
2604	0.561442
2603	-0.519182
2602	1.21626
2601	-0.350284
2600	0.391565
2599	-0.510681
2598	-0.446602
2597	0.0245764
2596	0.545209
2595	-1.00246
2594	2.85221
2593	3.34122
2592	0.0610644
2591	0.324272
2590	0.10416
2589	-0.0663131
2588	0.373903
2587	0.369526
2586	-0.859427
2585	-0.368479
2584	-0.859049
2583	-0.74797
2582	1.03505
2581	-0.313114
2580	0.300801
2579	-1.61464
2578	-0.490915
2577	0.0657591
2576	0.448952
2575	1.10536
2574	1.25508
2573	0.683325
2572	-0.468298
2571	0.514923
2570	0.0844328
2569	0.348734
2568	-0.561312
2567	0.0751219
2566	-0.331408
2565	0.501431
2564	-0.615057
2563	-0.466771
2562	-0.208824
2561	0.603198
2560	0.406375
2559	-0.0992761
2558	0.707546
2557	0.254441
2556	0.36101
2555	-0.162382
2554	0.23579
2553	0.567553
2552	0.330575
2551	0.853512
2550	0.268715
2549	-0.696599
2548	0.651119
2547	-0.219766
2546	0.313813
2545	0.197269
2544	-0.0847288
2543	0.434896
2542	0.169871
2541	-0.219721
2540	0.776581
2539	0.405001
2538	-0.422316
2537	-0.0614981
2536	0.00576938
2535	0.298138
2534	-0.0926528
2533	-0.280859
2532	-0.262709
2531	-0.3082
2530	-0.18572
2529	0.170081
2528	-0.25872
2527	0.487175
2526	0.4
2525	0.139733
2524	0.082023
2523	0.642521
2522	0.0345089
2521	-0.108335
2520	0.403478
2519	0.230896
2518	-0.294763
2517	-0.0631945
2516	-0.158967
2515	-0.134381
2514	0.00460036
2513	0.00781795
2512	-0.0273363
2511	0.614978
2510	0.387164
2509	0.169437
2508	0.283888
2507	-0.132353
2506	-0.281773
2505	0.219555
2504	0.563395
2503	-0.0635754
2502	-0.124211
2501	-0.00911773
2500	0.124335
2499	-0.00840956
2498	-0.00454559
2497	-0.0708731
2496	0.0520343
2495	-0.0531832
2494	0.267412
2493	0.11803
2492	0.342271
2491	0.553627
2490	-0.222092
2489	0.45631
2488	0.0908364
2487	-0.248969
2486	-0.0181617
2485	0.0864153
2484	-0.0077513
2483	-0.113185
2482	0.0662932
2481	-0.5565
2480	0.123327
2479	0.175732
2478	-0.0400721
2477	-0.0479284
2476	0.0711901
2475	0.592353
2474	0.10584
2473	0.201961
2472	0.0316518
2471	0.391266
2470	0.155908
2469	0.0919906
2468	0.0473072
2467	0.00588143
2466	-0.206008
2465	-0.131146
2464	-0.0354972
2463	0.00862549
2462	0.0309068
2461	-0.0813608
2460	0.0863244
2459	0.202584
2458	0.254798
2457	0.048592
2456	0.116634
2455	0.239893
2454	0.230184
2453	0.114846
2452	-0.0928612
2451	0.178271
2450	-0.050962
2449	-0.33926
2448	0.128808
2447	0.304518
2446	0.195587
2445	-0.0102788
2444	0.0554235
2443	-0.15077
2442	0.0240995
2441	0.0977933
2440	0.283627
2439	0.0747831
2438	0.0505649
2437	0.478437
2436	-0.0954215
2435	0.0674009
2434	-0.267327
2433	-0.211109
2432	-0.0650379
2431	0.0701486
2430	-0.384521
2429	0.0555342
2428	-0.193148
2427	0.184142
2426	0.327031
2425	-0.0996141
2424	0.270426
2423	0.065443
2422	0.0795217
2421	-0.256541
2420	-0.0305525
2419	0.0473021
2418	0.0500217
2417	-0.375897
2416	-0.372926
2415	-0.000597626
2414	-0.388749
2413	0.26762
2412	0.352497
2411	0.377219
2410	-0.0790951
2409	0.457284
2408	0.0373982
2407	0.340601
2406	-0.197226
2405	0.0518098
2404	-0.154143
2403	-0.0148631
2402	0.119139
2401	-0.179172
2400	-0.123902
2399	-0.161719
2398	0.062915
2397	-0.0472995
2396	-0.118923
2395	-0.193663
2394	-0.0228289
2393	0.0770304
2392	0.211505
2391	0.114453
2390	0.0118619
2389	0.0961387
2388	0.273153
2387	-0.102722
2386	-0.244116
2385	-0.171325
2384	-0.0364345
2383	0.126818
2382	0.161334
2381	-0.10355
2380	0.112563
2379	0.0761494
2378	0.148861
2377	0.168943
2376	0.347319
2375	0.25763
2374	0.321821
2373	0.174209
2372	0.161488
2371	0.0128859
2370	-0.072156
2369	0.189243
2368	-0.285817
2367	-0.1654
2366	0.289017
2365	0.0601351
2364	-0.123684
2363	-0.0200612
2362	-0.0234057
2361	-0.143194
2360	0.0993103
2359	0.0727971
2358	0.333887
2357	0.28052
2356	0.0822103
2355	0.0643476
2354	-0.181721
2353	0.122488
2352	0.169713
2351	-0.112388
2350	0.118332
2349	-0.155373
2348	-0.165697
2347	-0.207785
2346	-0.105733
2345	-0.011899
2344	0.163524
2343	0.0623822
2342	-0.0139418
2341	0.137739
2340	-0.0540218
2339	0.0855146
2338	0.155546
2337	0.373103
2336	0.0332059
2335	-0.126564
2334	-0.125186
2333	0.0244525
2332	-0.130078
2331	0.0187773
2330	0.269184
2329	0.0904342
2328	-0.0331931
2327	0.149225
2326	-0.0955604
2325	0.0918518
2324	0.274471
2323	0.14746
2322	0.0722251
2321	-0.141323
2320	0.145303
2319	-0.186333
2318	0.158351
2317	-0.0968932
2316	-0.012224
2315	0.164529
2314	0.126198
2313	-0.120061
2312	-0.117887
2311	0.332077
2310	0.0663375
2309	0.0338457
2308	0.129242
2307	0.166212
2306	0.164457
2305	0.242376
2304	0.300558
2303	0.00733946
2302	0.0472663
2301	0.0736935
2300	-0.142033
2299	0.069588
2298	-0.209524
2297	-0.131787
2296	0.0446306
2295	0.258799
2294	-0.0722781
2293	-0.108334
2292	0.159433
2291	0.0761683
2290	0.117879
2289	0.0765214
2288	0.158064
2287	0.267175
2286	-0.0431625
2285	0.0589337
2284	0.0677535
2283	0.151099
2282	-0.187179
2281	-0.179373
2280	-0.0552461
2279	0.0339178
2278	0.260871
2277	-0.00937812
2276	-0.208311
2275	0.256193
2274	0.3631
2273	-0.223562
2272	0.180311
2271	0.24073
2270	0.147298
2269	-0.130061
2268	-0.0898846
2267	-0.168161
2266	0.0569015
2265	-0.134111
2264	0.0611409
2263	0.0747585
2262	0.134044
2261	-0.153875
2260	0.0569759
2259	0.158449
2258	0.00914933
2257	0.292036
2256	0.00884237
2255	0.147297
2254	0.0851226
2253	0.0115924
2252	0.126414
2251	0.0653077
2250	-0.122334
2249	0.138331
2248	-0.0255054
2247	-0.0547045
2246	0.0343283
2245	0.0736522
2244	0.263067
2243	-0.00701215
2242	0.41524
2241	0.0563722
2240	0.251631
2239	0.110365
2238	-0.134255
2237	-0.100236
2236	0.229468
2235	-0.00363427
2234	-0.105799
2233	-0.0847539
2232	-0.0652318
2231	-0.124633
2230	0.0143341
2229	0.107974
2228	0.216253
2227	0.350849
2226	0.170182
2225	0.139118
2224	0.245316
2223	0.141406
2222	0.00572203
2221	0.00536881
2220	0.130601
2219	0.192143
2218	0.117985
2217	0.190489
2216	0.159626
2215	-0.0946997
2214	0.00364532
2213	-0.0444656
2212	0.168426
2211	0.0322434
2210	0.00797695
2209	0.248474
2208	0.190301
2207	0.272391
2206	-0.0103465
2205	0.148761
2204	0.389569
2203	0.0480995
2202	-0.0292869
2201	-0.175391
2200	0.0155781
2199	-0.0307565
2198	-0.000165825
2197	-0.0018095
2196	0.273877
2195	0.0639477
2194	0.121772
2193	0.306219
2192	0.162883
2191	0.213033
2190	0.233302
2189	-0.0176776
2188	0.140831
2187	0.0212608
2186	0.033587
2185	0.296585
2184	-0.0507444
2183	-0.277024
2182	0.0272758
2181	0.010066
2180	0.0505466
2179	0.0434626
2178	0.167908
2177	0.116267
2176	0.231801
2175	0.420007
2174	0.0739767
2173	0.295964
2172	0.0769889
2171	0.00740865
2170	0.113611
2169	0.18428
2168	-0.188826
2167	-0.0898903
2166	0.0513709
2165	0.106576
2164	0.0795428
2163	0.324656
2162	0.127468
2161	0.212442
2160	-0.00348332
2159	0.0823073
2158	0.180963
2157	0.193493
2156	-0.0298685
2155	0.0194599
2154	-0.0456889
2153	-0.0642862
2152	-0.204562
2151	-0.015901
2150	0.263078
2149	0.0930796
2148	0.287365
2147	0.327738
2146	0.276399
2145	0.0627351
2144	0.223476
2143	0.0596263
2142	0.112682
2141	-0.0580953
2140	0.088292
2139	0.0685236
2138	-0.0137272
2137	-0.194585
2136	-0.0360456
2135	0.346528
2134	0.141404
2133	0.147413
2132	-0.0139073
2131	0.260591
2130	0.135806
2129	0.276715
2128	0.263856
2127	0.208349
2126	0.209841
2125	0.0677113
2124	0.0391316
2123	-0.15551
2122	0.112366
2121	-0.145243
2120	0.0333177
2119	0.0508699
2118	0.148448
2117	0.166997
2116	0.035261
2115	0.127751
2114	0.158183
2113	0.0179253
2112	0.123244
2111	0.00606212
2110	0.0222965
2109	0.0836391
2108	0.040633
2107	0.299864
2106	0.050079
2105	-0.0473716
2104	-0.0544441
2103	-0.0784387
2102	0.0745833
2101	0.138943
2100	0.00653049
2099	0.481325
2098	0.2226
2097	0.419487
2096	0.135196
2095	0.113725
2094	-0.0328242
2093	0.00412363
2092	-0.214424
2091	0.0137313
2090	-0.155651
2089	0.0505835
2088	0.137369
2087	0.124373
2086	0.162336
2085	0.277109
2084	0.115904
2083	0.117944
2082	0.233776
2081	0.318294
2080	0.20485
2079	0.142445
2078	0.135327
2077	-0.125172
2076	-0.0454349
2075	0.103947
2074	-0.0867287
2073	0.0391885
2072	0.127611
2071	0.13584
2070	0.251203
2069	0.21034
2068	0.2524
2067	0.0929762
2066	0.300182
2065	0.0963736
2064	0.111835
2063	0.0995549
2062	0.164793
2061	-0.00640384
2060	0.178826
2059	0.0458967
2058	0.158972
2057	0.0587791
2056	0.183855
2055	0.231086
2054	-0.00926697
2053	0.115536
2052	-0.045077
2051	0.106593
2050	0.253951
2049	0.216813
2048	0.317863
2047	0.202697
2046	0.0795885
2045	0.239224
2044	0.153223
2043	0.0752017
2042	0.0204839
2041	0.0301903
2040	0.0988283
2039	0.127061
2038	0.0899471
2037	0.249374
2036	0.132539
2035	0.00391305
2034	-0.0203109
2033	0.224781
2032	0.256638
2031	0.19745
2030	0.227314
2029	0.116791
2028	0.087663
2027	0.198215
2026	0.0630816
2025	-0.044915
2024	-0.0084254
2023	-0.0031394
2022	0.167803
2021	0.0709831
2020	0.188417
2019	0.0753354
2018	0.107546
2017	0.115354
2016	0.0699122
2015	0.362098
2014	0.131473
2013	0.141341
2012	0.0559815
2011	0.107029
2010	0.027167
2009	0.277401
2008	0.0769154
2007	0.101011
2006	0.109401
2005	0.117337
2004	0.0435837
2003	0.22581
2002	0.150325
2001	0.227493
2000	0.184949
1999	0.070742
1998	0.20915
1997	0.303459
1996	0.116789
1995	0.13899
1994	0.0714598
1993	0.208551
1992	0.134597
1991	0.114904
1990	0.0492467
1989	0.205632
1988	0.149091
1987	0.0903632
1986	0.118768
1985	0.194086
1984	0.24475
1983	0.180922
1982	0.120586
1981	0.306428
1980	0.187074
1979	0.261256
1978	0.102104
1977	0.134059
1976	0.146641
1975	0.0968628
1974	0.0946593
1973	0.0712419
1972	0.118936
1971	0.126712
1970	0.172753
1969	0.125634
1968	0.0822909
1967	0.190388
1966	0.16689
1965	0.0663539
1964	0.0719256
1963	0.216124
1962	0.140651
1961	0.244455
1960	0.132136
1959	0.139157
1958	0.100638
1957	0.13952
1956	0.0411376
1955	0.00583543
1954	0.199632
1953	0.027783
1952	0.00279462
1951	-0.0348642
1950	0.0654349
1949	0.0479853
1948	0.12651
1947	0.191168
1946	0.126575
1945	0.21763
1944	0.226701
1943	0.157267
1942	0.204977
1941	0.137533
1940	0.125595
1939	0.0140634
1938	0.262399
1937	0.099066
1936	0.0287254
1935	0.103995
1934	0.0963937
1933	0.145992
1932	0.0861508
1931	0.0877439
1930	0.0872866
1929	0.073762
1928	0.199357
1927	0.169091
1926	0.0944633
1925	0.161936
1924	0.274428
1923	0.00105214
1922	0.164112
1921	0.0788459
1920	0.102799
1919	-0.0442565
1918	0.0647123
1917	0.0535661
1916	-0.0101048
1915	0.0403884
1914	0.062225
1913	0.0128022
1912	0.0113077
1911	0.0407418
1910	-0.0260002
1909	0.12524
1908	-0.0042973
1907	0.0925053
1906	0.0755479
1905	0.0541891
1904	0.155144
1903	0.0752853
1902	0.110402
1901	0.0225599
1900	0.0583377
1899	-0.00978518
1898	-0.0966896
1897	0.0413683
1896	0.126679
1895	0.112902
1894	-0.0456544
1893	0.0373956
1892	-0.0463673
1891	0.100898
1890	0.130069
1889	0.122268
1888	0.0655602
1887	0.143055
1886	0.0475113
1885	0.138498
1884	0.0545452
1883	0.143595
1882	0.194628
1881	0.147932
1880	0.0972561
1879	0.107857
1878	0.137879
1877	0.197445
1876	0.0429999
1875	0.0391562
1874	0.108525
1873	0.149435
1872	0.0641936
1871	0.148391
1870	0.25933
1869	-0.0593196
1868	0.104718
1867	0.101307
1866	0.0721205
1865	0.127054
1864	0.0742528
1863	0.186126
1862	0.119658
1861	0.164422
1860	0.072721
1859	0.120825
1858	0.221981
1857	0.102049
1856	0.11806
1855	0.0762101
1854	0.198579
1853	0.0399007
1852	0.146175
1851	0.0506897
1850	0.0178539
1849	0.105065
1848	0.127612
1847	0.242773
1846	0.247533
1845	0.111035
1844	0.218412
1843	0.204761
1842	0.202022
1841	0.129505
1840	0.0790648
1839	0.106484
1838	0.0992276
1837	0.180671
1836	0.170407
1835	0.0856975
1834	0.033353
1833	0.02544
1832	0.0502189
1831	0.102299
1830	0.113002
1829	0.0781732
1828	0.0132683
1827	0.0996152
1826	0.201111
1825	0.160837
1824	0.0845397
1823	0.0926583
1822	0.112941
1821	0.117598
1820	0.122771
1819	0.0447441
1818	0.0695186
1817	0.166479
1816	-0.010067
1815	0.0565443
1814	0.19308
1813	0.0412646
1812	0.0902601
1811	0.0432727
1810	0.0962568
1809	0.0618341
1808	0.119128
1807	0.0567236
1806	0.0684956
1805	0.187691
1804	0.11834
1803	0.134037
1802	0.0712217
1801	0.128097
1800	0.133561
1799	0.201548
1798	0.109418
1797	0.12243
1796	0.138408
1795	0.0415157
1794	0.0929522
1793	0.0318595
1792	0.0121564
1791	0.0949606
1790	0.0641618
1789	0.0811266
1788	0.0698152
1787	0.165631
1786	0.09069
1785	0.096732
1784	0.0765337
1783	0.129983
1782	0.222821
1781	0.110015
1780	0.208084
1779	0.123636
1778	0.119406
1777	0.0843971
1776	0.110722
1775	0.0622632
1774	0.142092
1773	0.00498098
1772	0.129051
1771	0.000712288
1770	0.0813388
1769	0.0424997
1768	0.0783316
1767	0.043386
1766	0.14405
1765	0.0940437
1764	0.118522
1763	0.147176
1762	0.0918046
1761	0.0712746
1760	0.103123
1759	0.155454
1758	0.115834
1757	0.1244
1756	0.094353
1755	0.0344494
1754	0.101242
1753	0.0173837
1752	0.0629631
1751	-0.014803
1750	0.0170453
1749	0.00929767
1748	0.0938791
1747	0.0238345
1746	0.0975626
1745	0.0867994
1744	0.125174
1743	0.0824691
1742	0.108786
1741	0.0599369
1740	0.0961431
1739	0.0916831
1738	0.0656561
1737	0.096471
1736	0.105836
1735	0.0766788
1734	0.0153907
1733	0.0415833
1732	0.00735301
1731	0.029311
1730	-0.0209715
1729	0.0398102
1728	0.0172012
1727	0.013434
1726	-0.00605152
1725	0.0149709
1724	0.0414475
1723	-0.00101908
1722	0.0215187
1721	0.0313528
1720	0.0382996
1719	0.0857238
1718	0.112115
1717	0.0171037
1716	0.0626045
1715	0.0533943
1714	0.0618699
1713	-0.0365324
1712	-0.00957033
1711	-0.0127406
1710	-0.0401475
1709	-0.0767327
1708	-0.00765025
1707	0.046245
1706	0.0868306
1705	0.0536802
1704	0.0288206
1703	0.111349
1702	0.0590826
1701	0.118658
1700	0.117316
1699	0.0563123
1698	0.0868302
1697	0.168863
1696	0.106416
1695	0.14458
1694	0.11251
1693	0.0959813
1692	0.0244736
1691	0.0781696
1690	-0.0314199
1689	-0.0840097
1688	0.00351699
1687	-0.022736
1686	0.0308864
1685	0.0504568
1684	0.00161546
1683	0.0188192
1682	0.015607
1681	0.0189516
1680	0.0465899
1679	0.0537504
1678	0.0356349
1677	0.0478723
1676	0.0731101
1675	0.0644712
1674	0.0580114
1673	0.0265538
1672	0.0142188
1671	0.085254
1670	0.0729246
1669	0.011333
1668	0.0274992
1667	0.0581496
1666	0.0552632
1665	0.0524719
1664	0.0550553
1663	0.159035
1662	0.0975318
1661	0.0980315
1660	0.0393498
1659	0.119791
1658	0.113647
1657	0.18449
1656	0.129091
1655	0.13656
1654	0.172708
1653	0.0847363
1652	0.157545
1651	0.100238
1650	0.1442
1649	0.0381858
1648	0.0774674
1647	0.122011
1646	0.140939
1645	0.156474
1644	0.136221
1643	0.14766
1642	0.135297
1641	0.176334
1640	0.162463
1639	0.157668
1638	0.0757784
1637	0.199942
1636	0.137466
1635	0.143827
1634	0.185505
1633	0.152635
1632	0.222208
1631	0.165218
1630	0.149404
1629	0.0666388
1628	0.113336
1627	0.188356
1626	0.0857754
1625	0.0992974
1624	0.151251
1623	0.123248
1622	0.230651
1621	0.17686
1620	0.139543
1619	0.165327
1618	0.228833
1617	0.179774
1616	0.20039
1615	0.185493
1614	0.164545
1613	0.193446
1612	0.148019
1611	0.108053
1610	0.174497
1609	0.151879
1608	0.129425
1607	0.140808
1606	0.109231
1605	0.177686
1604	0.213732
1603	0.211159
1602	0.192852
1601	0.201199
1600	0.141161
1599	0.212237
1598	0.0966491
1597	0.187985
1596	0.155538
1595	0.146359
1594	0.174028
1593	0.137622
1592	0.153995
1591	0.121334
1590	0.107946
1589	0.144828
1588	0.147695
1587	0.0908847
1586	0.166139
1585	0.164185
1584	0.189093
1583	0.145627
1582	0.20635
1581	0.169845
1580	0.205731
1579	0.217539
1578	0.191393
1577	0.219281
1576	0.193604
1575	0.123907
1574	0.139052
1573	0.09271
1572	0.141158
1571	0.146621
1570	0.138453
1569	0.134659
1568	0.169057
1567	0.133846
1566	0.165663
1565	0.146308
1564	0.172854
1563	0.154973
1562	0.17162
1561	0.18826
1560	0.165042
1559	0.170423
1558	0.196103
1557	0.213605
1556	0.164643
1555	0.145167
1554	0.164565
1553	0.187049
1552	0.167329
1551	0.148598
1550	0.142789
1549	0.109847
1548	0.160785
1547	0.177695
1546	0.128667
1545	0.214569
1544	0.202281
1543	0.218093
1542	0.157986
1541	0.179112
1540	0.161314
1539	0.146588
1538	0.177136
1537	0.129924
1536	0.168028
1535	0.148077
1534	0.0984373
1533	0.112434
1532	0.201439
1531	0.111189
1530	0.0836129
1529	0.163234
1528	0.16069
1527	0.135339
1526	0.233056
1525	0.170213
1524	0.190218
1523	0.131034
1522	0.19469
1521	0.103226
1520	0.194454
1519	0.129892
1518	0.159862
1517	0.195282
1516	0.151424
1515	0.192265
1514	0.131121
1513	0.117121
1512	0.158071
1511	0.14288
1510	0.0940825
1509	0.218523
1508	0.136547
1507	0.160724
1506	0.208131
1505	0.216442
1504	0.210832
1503	0.137915
1502	0.172766
1501	0.197804
1500	0.15364
1499	0.176213
1498	0.170029
1497	0.13303
1496	0.124711
1495	0.122073
1494	0.124425
1493	0.138816
1492	0.108354
1491	0.161908
1490	0.107327
1489	0.157614
1488	0.184969
1487	0.191336
1486	0.200855
1485	0.164285
1484	0.208005
1483	0.158989
1482	0.172292
1481	0.192999
1480	0.174292
1479	0.179513
1478	0.115144
1477	0.123951
1476	0.181894
1475	0.151325
1474	0.135047
1473	0.118463
1472	0.123375
1471	0.137991
1470	0.0937428
1469	0.128864
1468	0.137021
1467	0.192912
1466	0.142233
1465	0.101216
1464	0.159981
1463	0.161861
1462	0.149235
1461	0.164557
1460	0.128383
1459	0.135382
1458	0.173804
1457	0.116649
1456	0.154742
1455	0.119415
1454	0.125981
1453	0.112286
1452	0.123954
1451	0.129924
1450	0.101487
1449	0.13315
1448	0.168628
1447	0.179829
1446	0.154219
1445	0.174853
1444	0.173189
1443	0.153708
1442	0.144463
1441	0.136418
1440	0.179891
1439	0.0888463
1438	0.119944
1437	0.0997454
1436	0.124281
1435	0.134446
1434	0.161751
1433	0.110547
1432	0.137117
1431	0.193444
1430	0.139523
1429	0.177424
1428	0.143889
1427	0.138089
1426	0.134475
1425	0.13384
1424	0.157775
1423	0.125844
1422	0.115821
1421	0.132701
1420	0.106457
1419	0.1351
1418	0.133897
1417	0.10937
1416	0.082885
1415	0.144133
1414	0.125323
1413	0.100103
1412	0.13844
1411	0.161246
1410	0.158412
1409	0.153488
1408	0.139219
1407	0.154225
1406	0.131165
1405	0.129018
1404	0.110087
1403	0.15352
1402	0.182554
1401	0.145965
1400	0.152992
1399	0.123531
1398	0.0453428
1397	0.121783
1396	0.135502
1395	0.123488
1394	0.142217
1393	0.107516
1392	0.128018
1391	0.109596
1390	0.159494
1389	0.0871291
1388	0.118164
1387	0.131676
1386	0.12234
1385	0.114196
1384	0.0828883
1383	0.136212
1382	0.0961977
1381	0.0434695
1380	0.157252
1379	0.0895292
1378	0.0797965
1377	0.130625
1376	0.0988047
1375	0.13077
1374	0.160674
1373	0.151016
1372	0.122177
1371	0.102099
1370	0.148282
1369	0.185795
1368	0.188824
1367	0.116165
1366	0.146068
1365	0.123613
1364	0.0744921
1363	0.139118
1362	0.14738
1361	0.138114
1360	0.156464
1359	0.0793121
1358	0.118382
1357	0.137171
1356	0.127287
1355	0.103839
1354	0.107599
1353	0.158386
1352	0.106541
1351	0.165155
1350	0.145661
1349	0.116088
1348	0.130991
1347	0.182863
1346	0.17673
1345	0.119802
1344	0.162236
1343	0.159378
1342	0.149058
1341	0.168729
1340	0.141965
1339	0.127346
1338	0.1723
1337	0.126281
1336	0.0943356
1335	0.117907
1334	0.155332
1333	0.137005
1332	0.185429
1331	0.170277
1330	0.178745
1329	0.191182
1328	0.179438
1327	0.168792
1326	0.145
1325	0.198565
1324	0.140907
1323	0.169785
1322	0.172355
1321	0.146444
1320	0.144275
1319	0.129701
1318	0.123306
1317	0.15834
1316	0.124333
1315	0.162623
1314	0.117619
1313	0.118515
1312	0.187109
1311	0.204159
1310	0.157556
1309	0.228744
1308	0.159569
1307	0.182322
1306	0.174598
1305	0.201321
1304	0.156833
1303	0.14105
1302	0.219889
1301	0.194309
1300	0.154662
1299	0.12574
1298	0.139216
1297	0.121194
1296	0.110445
1295	0.138634
1294	0.173401
1293	0.146533
1292	0.159187
1291	0.16165
1290	0.149843
1289	0.18572
1288	0.188335
1287	0.167284
1286	0.184566
1285	0.188825
1284	0.150392
1283	0.165511
1282	0.163344
1281	0.142351
1280	0.171224
1279	0.18191
1278	0.13883
1277	0.142657
1276	0.160694
1275	0.0968088
1274	0.137297
1273	0.167984
1272	0.183121
1271	0.179489
1270	0.149166
1269	0.153921
1268	0.174372
1267	0.204607
1266	0.186755
1265	0.179121
1264	0.128094
1263	0.175211
1262	0.216073
1261	0.139825
1260	0.156893
1259	0.159515
1258	0.150692
1257	0.148507
1256	0.1739
1255	0.131797
1254	0.135322
1253	0.170051
1252	0.184957
1251	0.180239
1250	0.173929
1249	0.146189
1248	0.188559
1247	0.171042
1246	0.194407
1245	0.134073
1244	0.200543
1243	0.220695
1242	0.153882
1241	0.129321
1240	0.172096
1239	0.128841
1238	0.145774
1237	0.150182
1236	0.125023
1235	0.170759
1234	0.144708
1233	0.203743
1232	0.157049
1231	0.180115
1230	0.135544
1229	0.160455
1228	0.179198
1227	0.186889
1226	0.146826
1225	0.197803
1224	0.190361
1223	0.191605
1222	0.148395
1221	0.107802
1220	0.158244
1219	0.140909
1218	0.162665
1217	0.106812
1216	0.12034
1215	0.160467
1214	0.153947
1213	0.198091
1212	0.132352
1211	0.155136
1210	0.207978
1209	0.148582
1208	0.153493
1207	0.112636
1206	0.201253
1205	0.180648
1204	0.13523
1203	0.150009
1202	0.173067
1201	0.12926
1200	0.156886
1199	0.154551
1198	0.152353
1197	0.0813751
1196	0.106447
1195	0.155075
1194	0.141093
1193	0.112903
1192	0.0961036
1191	0.206032
1190	0.152918
1189	0.144382
1188	0.148073
1187	0.173331
1186	0.174
1185	0.157956
1184	0.149948
1183	0.199644
1182	0.157545
1181	0.131901
1180	0.122777
1179	0.091619
1178	0.123571
1177	0.0973765
1176	0.127518
1175	0.0522237
1174	0.13064
1173	0.150916
1172	0.13289
1171	0.120495
1170	0.116974
1169	0.148461
1168	0.163129
1167	0.134331
1166	0.170295
1165	0.20488
1164	0.0878836
1163	0.0930334
1162	0.172304
1161	0.138348
1160	0.148629
1159	0.0997733
1158	0.0820993
1157	0.0749284
1156	0.117616
1155	0.106142
1154	0.0873087
1153	0.147089
1152	0.11577
1151	0.16674
1150	0.156125
1149	0.216765
1148	0.0945913
1147	0.133273
1146	0.182354
1145	0.140093
1144	0.128503
1143	0.143123
1142	0.139935
1141	0.108869
1140	0.135422
1139	0.16387
1138	0.143572
1137	0.157475
1136	0.150537
1135	0.122666
1134	0.155543
1133	0.195997
1132	0.179015
1131	0.177079
1130	0.148371
1129	0.20337
1128	0.170282
1127	0.130107
1126	0.171033
1125	0.126424
1124	0.159429
1123	0.180478
1122	0.0773709
1121	0.127633
1120	0.176003
1119	0.144886
1118	0.163031
1117	0.158009
1116	0.169276
1115	0.150832
1114	0.182644
1113	0.196309
1112	0.175692
1111	0.156596
1110	0.126098
1109	0.165117
1108	0.132171
1107	0.193155
1106	0.141582
1105	0.0920995
1104	0.158418
1103	0.175464
1102	0.125282
1101	0.121465
1100	0.145108
1099	0.180055
1098	0.193401
1097	0.203728
1096	0.172044
1095	0.196153
1094	0.179881
1093	0.160704
1092	0.136306
1091	0.133887
1090	0.194871
1089	0.151185
1088	0.166785
1087	0.111856
1086	0.121645
1085	0.189817
1084	0.120032
1083	0.162948
1082	0.213323
1081	0.135353
1080	0.20675
1079	0.159451
1078	0.17843
1077	0.196234
1076	0.175065
1075	0.167742
1074	0.103593
1073	0.173139
1072	0.184303
1071	0.197118
1070	0.153444
1069	0.153424
1068	0.173587
1067	0.198355
1066	0.196103
1065	0.134521
1064	0.127017
1063	0.201747
1062	0.178013
1061	0.1646
1060	0.207767
1059	0.139573
1058	0.185697
1057	0.167962
1056	0.148137
1055	0.160617
1054	0.146623
1053	0.142574
1052	0.116099
1051	0.162009
1050	0.149402
1049	0.122271
1048	0.173733
1047	0.176936
1046	0.21715
1045	0.211027
1044	0.143161
1043	0.161994
1042	0.143709
1041	0.187016
1040	0.155817
1039	0.139539
1038	0.143486
1037	0.146679
1036	0.181403
1035	0.179052
1034	0.145623
1033	0.11735
1032	0.0880814
1031	0.185391
1030	0.161478
1029	0.210064
1028	0.171196
1027	0.219991
1026	0.221364
1025	0.124746
1024	0.213105
1023	0.112102
1022	0.129473
1021	0.140328
1020	0.116277
1019	0.1826
1018	0.153131
1017	0.123143
1016	0.103038
1015	0.148556
1014	0.146557
1013	0.131864
1012	0.21287
1011	0.125502
1010	0.225226
1009	0.153567
1008	0.249402
1007	0.232239
1006	0.106311
1005	0.211684
1004	0.180382
1003	0.0715358
1002	0.160847
1001	0.0733303
1000	0.111109
999	0.106975
998	0.20062
997	0.0831341
996	0.235198
995	0.152636
994	0.203604
993	0.250422
992	0.199453
991	0.280001
990	0.172893
989	0.131578
988	0.0949897
987	0.266181
986	0.146625
985	0.213477
984	0.0481436
983	0.216515
982	0.219418
981	0.0810799
980	0.11481
979	0.155932
978	0.105735
977	0.253371
976	0.212213
975	0.230034
974	0.225274
973	0.324499
972	0.235377
971	0.157688
970	0.125551
969	0.161315
968	0.101623
967	0.135924
966	0.163203
965	0.170372
964	0.0687771
963	0.191819
962	0.178961
961	0.204073
960	0.195263
959	0.231745
958	0.288608
957	0.228579
956	0.101134
955	0.175387
954	0.272514
953	0.156635
952	0.204513
951	0.209995
950	0.228935
949	0.10974
948	0.0413487
947	0.149093
946	0.108648
945	0.262234
944	0.243977
943	0.24947
942	0.204709
941	0.133878
940	0.190031
939	0.229074
938	0.235415
937	0.218329
936	0.229619
935	0.211594
934	0.129433
933	0.266392
932	-0.0787718
931	0.147189
930	0.220364
929	0.12677
928	0.0915264
927	0.222215
926	0.155586
925	0.287346
924	0.267846
923	0.34706
922	0.155834
921	0.374885
920	0.170594
919	0.157102
918	0.342488
917	0.26858
916	0.0979797
915	0.143029
914	0.0538964
913	0.318869
912	0.314725
911	0.263854
910	0.216521
909	0.373492
908	0.317328
907	0.242865
906	0.324206
905	0.202088
904	0.0888033
903	0.181132
902	0.13585
901	0.0746526
900	0.0555751
899	-0.112619
898	0.18617
897	-0.0169831
896	0.216885
895	-0.137178
894	0.322283
893	0.290714
892	0.260963
891	0.242373
890	0.331744
889	0.340402
888	0.192305
887	0.406234
886	0.252048
885	0.109809
884	0.0245049
883	0.100181
882	0.0389786
881	0.085168
880	0.119353
879	-0.0123692
878	0.0679831
877	0.207737
876	0.123641
875	0.0780212
874	0.144196
873	0.313111
872	0.1891
871	0.200233
870	-0.0341217
869	0.500382
868	0.373928
867	-0.157071
866	-0.238359
865	0.211611
864	0.563109
863	0.139578
862	0.347988
861	0.454737
860	0.510452
859	0.25549
858	0.319866
857	-0.0707924
856	0.367236
855	0.438699
854	0.557856
853	-0.114875
852	0.526896
851	0.47703
850	0.130577
849	0.137335
848	0.127586
847	0.119893
846	0.111765
845	0.108509
844	0.0998574
843	0.111771
842	0.119555
841	0.123076
840	0.130536
839	0.120319
838	0.119446
837	0.11225
836	0.114715
835	0.116263
834	0.116414
833	0.120847
832	0.124172
831	0.111306
830	0.109165
829	0.105522
828	0.103202
827	0.107953
826	0.112785
825	0.116727
824	0.122855
823	0.123926
822	0.115907
821	0.117189
820	0.10943
819	0.117541
818	0.115438
817	0.117713
816	0.121292
815	0.116074
814	0.109208
813	0.105548
812	0.102611
811	0.107211
810	0.112489
809	0.11503
808	0.119361
807	0.11947
806	0.117255
805	0.115914
804	0.113484
803	0.115463
802	0.116036
801	0.117983
800	0.115691
799	0.11533
798	0.109716
797	0.106269
796	0.102922
795	0.107249
794	0.110026
793	0.114004
792	0.117598
791	0.117279
790	0.114709
789	0.11759
788	0.114964
787	0.112458
786	0.116676
785	0.114941
784	0.116403
783	0.113884
782	0.109022
781	0.108092
780	0.103657
779	0.106076
778	0.10949
777	0.113349
776	0.116534
775	0.118604
774	0.115297
773	0.116291
772	0.111306
771	0.114566
770	0.116685
769	0.115866
768	0.117345
767	0.113164
766	0.110526
765	0.106135
764	0.106518
763	0.107193
762	0.111725
761	0.112835
760	0.116385
759	0.115231
758	0.1147
757	0.116043
756	0.113866
755	0.116311
754	0.115189
753	0.114885
752	0.115681
751	0.111477
750	0.107755
749	0.107194
748	0.105412
747	0.109359
746	0.110598
745	0.111017
744	0.115666
743	0.11682
742	0.114438
741	0.116437
740	0.114731
739	0.114772
738	0.113693
737	0.113865
736	0.114307
735	0.110831
734	0.108754
733	0.107377
732	0.105476
731	0.10654
730	0.109729
729	0.112391
728	0.113784
727	0.116355
726	0.115783
725	0.115171
724	0.114226
723	0.115417
722	0.114494
721	0.1139
720	0.112285
719	0.109245
718	0.107602
717	0.108115
716	0.104913
715	0.107142
714	0.11091
713	0.111851
712	0.113818
711	0.115909
710	0.11463
709	0.115069
708	0.114007
707	0.114855
706	0.112725
705	0.114189
704	0.111169
703	0.109282
702	0.108637
701	0.105455
700	0.107433
699	0.108516
698	0.110457
697	0.111131
696	0.113615
695	0.114293
694	0.115006
693	0.114735
692	0.114903
691	0.11422
690	0.113089
689	0.111049
688	0.108978
687	0.108358
686	0.104052
685	0.103418
684	0.103482
683	0.104059
682	0.106899
681	0.109874
680	0.110057
679	0.111607
678	0.113193
677	0.112508
676	0.113087
675	0.111828
674	0.112242
673	0.11016
672	0.109574
671	0.107713
670	0.1045
669	0.103605
668	0.104725
667	0.104896
666	0.107014
665	0.110027
664	0.111375
663	0.111825
662	0.111364
661	0.112629
660	0.110786
659	0.111533
658	0.111716
657	0.109874
656	0.107974
655	0.10623
654	0.105011
653	0.103741
652	0.103656
651	0.104833
650	0.105537
649	0.107363
648	0.11034
647	0.110561
646	0.111516
645	0.111513
644	0.112859
643	0.111474
642	0.111324
641	0.109024
640	0.108487
639	0.106273
638	0.105116
637	0.104117
636	0.102235
635	0.102995
634	0.104662
633	0.106196
632	0.107933
631	0.109749
630	0.11104
629	0.110276
628	0.110011
627	0.109734
626	0.110907
625	0.109394
624	0.107988
623	0.106431
622	0.105603
621	0.103939
620	0.108606
619	0.110132
618	0.109623
617	0.110615
616	0.108943
615	0.109427
614	0.108693
613	0.108122
612	0.106641
611	0.103755
610	0.10362
609	0.100958
608	0.101423
607	0.101226
606	0.101999
605	0.10405
604	0.105183
603	0.107062
602	0.108309
601	0.108969
600	0.109741
599	0.109357
598	0.108678
597	0.106712
596	0.106116
595	0.104169
594	0.102222
593	0.101032
592	0.100025
591	0.0998581
590	0.100021
589	0.102227
588	0.103308
587	0.106061
586	0.106461
585	0.107296
584	0.109193
583	0.107426
582	0.108037
581	0.106966
580	0.106637
579	0.105104
578	0.102927
577	0.100614
576	0.100283
575	0.0985112
574	0.0982401
573	0.100107
572	0.101295
571	0.103109
570	0.104924
569	0.105925
568	0.105991
567	0.106965
566	0.106078
565	0.10621
564	0.105033
563	0.103363
562	0.101572
561	0.0999839
560	0.0989743
559	0.0977207
558	0.0968444
557	0.0980872
556	0.0985847
555	0.1005
554	0.103581
553	0.104377
552	0.104259
551	0.105033
550	0.105532
549	0.104149
548	0.104523
547	0.101821
546	0.101568
545	0.0996622
544	0.0983441
543	0.0966156
542	0.0957924
541	0.0954245
540	0.0970757
539	0.0986335
538	0.10043
537	0.103381
536	0.102683
535	0.103709
534	0.10396
533	0.103286
532	0.101873
531	0.101545
530	0.100649
529	0.0994557
528	0.0975712
527	0.0959885
526	0.0935705
525	0.093487
524	0.0945921
523	0.0980028
522	0.0977546
521	0.0986323
520	0.100936
519	0.100995
518	0.101875
517	0.101106
516	0.101341
515	0.10048
514	0.0989724
513	0.0988086
512	0.0949242
511	0.0941727
510	0.100008
509	0.0979001
508	0.0968459
507	0.0948108
506	0.0925924
505	0.0926177
504	0.0923767
503	0.0923894
502	0.0922631
501	0.0943126
500	0.0969565
499	0.09714
498	0.0980349
497	0.100026
496	0.0988705
495	0.0986894
494	0.0977365
493	0.0962316
492	0.0948447
491	0.0936902
490	0.0913057
489	0.089387
488	0.0888146
487	0.0896451
486	0.0897887
485	0.0905987
484	0.0923318
483	0.0947828
482	0.0955365
481	0.0952899
480	0.0964479
479	0.0963315
478	0.0960203
477	0.0944732
476	0.092672
475	0.0909415
474	0.0891747
473	0.0882301
472	0.0866119
471	0.0869065
470	0.0877497
469	0.0882612
468	0.0885668
467	0.0926843
466	0.0931259
465	0.0931269
464	0.0945227
463	0.0927742
462	0.0934618
461	0.0908332
460	0.0891682
459	0.0891339
458	0.0863495
457	0.0864385
456	0.0835492
455	0.0832632
454	0.0826222
453	0.0832778
452	0.0841481
451	0.0864468
450	0.085654
449	0.0824103
448	0.0812829
447	0.0806232
446	0.0802615
445	0.0808088
444	0.0821384
443	0.0847092
442	0.0852412
441	0.0877672
440	0.0869965
439	0.0870575
438	0.0873779
437	0.0864231
436	0.0847161
435	0.0835852
434	0.0806217
433	0.0794006
432	0.0774285
431	0.0770619
430	0.0760828
429	0.0763994
428	0.077607
427	0.0784883
426	0.081424
425	0.0820372
424	0.0812438
423	0.0822761
422	0.0800415
421	0.0810316
420	0.0786415
419	0.0775276
418	0.0770867
417	0.0732831
416	0.0724185
415	0.0696882
414	0.0702666
413	0.0703832
412	0.0712516
411	0.0737702
410	0.0691615
409	0.0666191
408	0.067981
407	0.0699546
406	0.0707993
405	0.074961
404	0.0754763
403	0.0736195
402	0.0724481
401	0.0721681
400	0.0721296
399	0.0723862
398	0.0696669
397	0.0677026
396	0.066254
395	0.063205
394	0.0620697
393	0.0567874
392	0.0583881
391	0.0600016
390	0.0607769
389	0.0619096
388	0.0664234
387	0.0651651
386	0.0633062
385	0.0617704
384	0.0614296
383	0.061219
382	0.0611259
381	0.058043
380	0.0568169
379	0.0529637
378	0.0486253
377	0.0499839
376	0.0488086
375	0.0477983
374	0.0501866
373	0.04954
372	0.0517232
371	0.0535082
370	0.0526341
369	0.053709
368	0.0505909
367	0.0522285
366	0.0501307
365	0.0493109
364	0.0454742
363	0.0470629
362	0.0473588
361	0.0425821
360	0.0401031
359	0.0399348
358	0.0373491
357	0.0292706
356	0.0326945
355	0.0332645
354	0.038184
353	0.0452476
352	0.0397071
351	0.0379602
350	0.0322314
349	0.0316675
348	0.0264809
347	0.0288883
346	0.0308967
345	0.0305563
344	0.0297331
343	0.0250603
342	0.0194384
341	0.0146478
340	0.0249319
339	0.0252277
338	0.0156184
337	0.0173495
336	0.021785
335	0.0188057
334	0.0240359
333	0.0216583
332	0.0179274
331	0.0127029
330	0.00767903
329	0.00230328
328	0.00297489
327	0.00821424
326	0.0127301
325	0.0169483
324	0.0194691
323	0.0176429
322	0.0113393
321	0.0174857
320	0.00926665
319	0.00867246
318	0.00973529
317	0.01114
316	0.013011
315	0.012459
314	0.00864956
313	0.00526399
312	0.0029895
311	-0.00295752
310	-0.0019222
309	0.000826528
308	0.00514557
307	0.0103361
306	0.0124567
305	0.0107094
304	0.00823524
303	0.00787413
302	0.00416136
301	0.00561927
300	0.00491186
299	0.008503
298	0.00782373
297	0.008342
296	0.00390857
295	-0.000944181
294	-0.00211365
293	-0.00649817
292	-0.00314132
291	-0.00365411
290	4.70198E-05
289	0.00065126
288	0.00361142
287	0.00307012
286	0.00389143
285	0.00567404
284	0.00339135
283	0.00391872
282	0.00321103
281	0.0018593
280	0.00152653
279	0.00106004
278	-0.00107326
277	-0.00392392
276	-0.00505767
275	-0.00450665
274	-0.00401868
273	-0.00350712
272	-0.00208005
271	-0.000116213
270	0.00115633
269	0.00287106
268	0.00226356
267	0.00377824
266	0.0027129
265	0.000701151
264	0.00213338
263	0.00112858
262	0.000468219
261	0.00135306
260	-0.00239245
259	-0.00366277
258	-0.00515506
257	-0.00713973
256	-0.00842602
255	-0.00613161
254	-0.00284799
253	0.000440425
252	0.00431304
251	0.00406943
250	0.0037897
249	0.000356982
248	0.00159798
247	-0.000484965
246	0.00104746
245	0.00198007
244	0.00202724
243	0.00220862
242	5.68656E-05
241	-0.00147815
240	-0.00382377
239	-0.00552508
238	-0.00689725
237	-0.00556298
236	-0.00445833
235	-0.00170941
234	0.000369438
233	0.00239069
232	0.00267782
231	0.00221674
230	0.00401362
229	0.00179301
228	0.00235688
227	0.00175628
226	0.00105086
225	0.000767687
224	0.000741289
223	-0.00128409
222	-0.00243287
221	-0.00497837
220	-0.00791741
219	-0.00724384
218	-0.00522455
217	-0.00477072
216	-0.00327823
215	0.00190361
214	0.00310057
213	0.00383575
212	0.000788545
211	0.00230326
210	-0.000537619
209	-0.00210123
208	-0.00142701
207	0.00367729
206	0.000516706
205	0.00422052
204	-0.000639335
203	-0.00313373
202	-0.00701448
201	-0.0120374
200	-0.0148164
199	-0.0124022
198	-0.00527077
197	-0.00186447
196	0.00616444
195	0.0116083
194	0.0127166
193	-0.00104559
192	-0.0179819
191	-0.0424258
190	-0.0994772



[コメント情報]
試料名	ｾﾙﾛ
オペレーター	
所属	
コメント	

[データ情報]
作成日時	2017/09/15 13:17
スタート	2700 nm
エンド	190 nm
データ間隔	1 nm
データ数	2511    

[測定情報]
機種名	V-770
シリアル番号	A034761801
測光モード	%T
UV/Vis バンド幅	0.5 nm
NIR バンド幅	2 nm
レスポンス	Quick
走査速度	400 nm/min
光源	自動
光源切換	340 nm
回折格子切換	850 nm
