TITLE	
DATA TYPE	
ORIGIN	JASCO
OWNER	
DATE	17/09/15
TIME	13:04:00
SPECTROMETER/DATA SYSTEM	JASCO Corp., V-770, Rev. 1.00
RESOLUTION	
DELTAX	-1
XUNITS	NANOMETERS
YUNITS	TRANSMITTANCE
FIRSTX	2700
LASTX	190
NPOINTS	2511
FIRSTY	12.5758
MAXY	12.5758
MINY	-6.87831
XYDATA
2700	12.5758
2699	12.1603
2698	2.76407
2697	6.68598
2696	-4.75604
2695	0.989511
2694	0.15804
2693	-0.273016
2692	4.63301
2691	2.13157
2690	1.2304
2689	-2.0884
2688	0.496807
2687	0.544029
2686	-2.20599
2685	2.93931
2684	2.75342
2683	0.348812
2682	1.24415
2681	1.77366
2680	0.194754
2679	0.854249
2678	-1.35044
2677	-0.0227501
2676	1.08996
2675	2.20669
2674	0.0554247
2673	1.2628
2672	-1.22463
2671	-0.383751
2670	1.51011
2669	0.698235
2668	-6.87831
2667	0.580945
2666	0.596214
2665	-3.59364
2664	-0.968158
2663	-0.769613
2662	0.918923
2661	0.0437842
2660	-0.269614
2659	0.892906
2658	-0.629044
2657	0.550252
2656	1.34242
2655	0.417728
2654	0.760328
2653	0.9439
2652	0.987434
2651	-1.01369
2650	1.23185
2649	0.134841
2648	-0.0109351
2647	1.06251
2646	-0.136195
2645	-0.208347
2644	-0.232066
2643	0.0603439
2642	0.262069
2641	-0.896955
2640	-0.386032
2639	-0.262054
2638	-0.0283899
2637	-0.235305
2636	0.466372
2635	-0.198118
2634	0.452763
2633	0.73992
2632	0.318329
2631	-0.242521
2630	1.53105
2629	1.1008
2628	1.22659
2627	0.419353
2626	-1.06661
2625	0.137459
2624	0.167203
2623	0.922329
2622	-0.089596
2621	-0.484476
2620	0.482458
2619	-0.0984442
2618	-1.47148
2617	0.362255
2616	-2.39416
2615	0.63537
2614	-0.767669
2613	0.241784
2612	0.275419
2611	1.03429
2610	0.449241
2609	0.40285
2608	0.520787
2607	1.02075
2606	-0.425349
2605	0.117574
2604	3.04843
2603	2.15374
2602	-0.993353
2601	-0.914952
2600	0.338253
2599	-0.266461
2598	0.118855
2597	0.119399
2596	-0.10513
2595	-0.913228
2594	-1.95045
2593	-2.06952
2592	-0.181615
2591	0.0484684
2590	-0.0345981
2589	0.0123558
2588	-0.772391
2587	1.44943
2586	0.827447
2585	0.914908
2584	0.174581
2583	0.86787
2582	0.658623
2581	0.853199
2580	-0.0968516
2579	1.11085
2578	0.0439947
2577	0.541828
2576	-0.470422
2575	-0.913023
2574	-0.563659
2573	0.118119
2572	0.23154
2571	0.0651345
2570	0.40515
2569	-0.746438
2568	-0.244237
2567	-0.200202
2566	0.0140235
2565	0.22169
2564	0.525519
2563	0.715413
2562	-0.324516
2561	0.53834
2560	-0.408278
2559	0.608238
2558	1.26658
2557	0.460462
2556	0.292819
2555	-0.11801
2554	0.503828
2553	0.152846
2552	0.602363
2551	-0.0603854
2550	0.0117849
2549	0.150836
2548	-0.0550861
2547	0.233504
2546	0.766392
2545	-0.443813
2544	-0.0910247
2543	-0.094881
2542	-0.919179
2541	-0.188091
2540	0.299922
2539	0.140176
2538	0.412115
2537	0.00946759
2536	0.907138
2535	0.343192
2534	0.847256
2533	0.338485
2532	0.694169
2531	0.7704
2530	-0.0260323
2529	0.19747
2528	-0.00499225
2527	-0.338395
2526	0.0668941
2525	0.162801
2524	-0.242208
2523	-0.0358959
2522	-0.255198
2521	-0.243832
2520	0.192219
2519	-0.0714501
2518	-0.453694
2517	0.329995
2516	0.199986
2515	0.0297092
2514	0.00480655
2513	0.177788
2512	0.507284
2511	0.358584
2510	0.849441
2509	0.0372369
2508	0.317723
2507	0.0476181
2506	0.0949044
2505	0.427233
2504	-0.0845449
2503	0.0660654
2502	0.0760489
2501	-0.316235
2500	0.112784
2499	-0.0579337
2498	-0.0302286
2497	-0.395973
2496	-0.247794
2495	-0.174813
2494	0.109183
2493	0.0127813
2492	0.0489855
2491	0.444255
2490	0.199938
2489	0.0649887
2488	0.248885
2487	0.0322747
2486	0.520033
2485	0.715026
2484	0.219146
2483	0.23966
2482	0.410626
2481	0.125207
2480	-0.0434948
2479	0.0751542
2478	0.0934042
2477	0.0497615
2476	-0.0877081
2475	-0.336094
2474	-0.094324
2473	0.0535202
2472	0.0999591
2471	-0.185009
2470	0.04943
2469	0.0195371
2468	0.099806
2467	0.145128
2466	0.0853817
2465	0.410144
2464	0.424123
2463	0.32796
2462	-0.0467286
2461	0.141981
2460	-0.206892
2459	0.354798
2458	0.384202
2457	0.00400611
2456	0.167076
2455	-0.475065
2454	0.0603455
2453	-0.202559
2452	0.238628
2451	-0.173238
2450	0.179788
2449	0.00213882
2448	0.0134811
2447	-0.0571369
2446	0.0611235
2445	0.221014
2444	0.327275
2443	0.352841
2442	0.445811
2441	0.361786
2440	0.630606
2439	0.499273
2438	0.13518
2437	0.272809
2436	0.207613
2435	0.156203
2434	0.0982498
2433	0.0847211
2432	0.169562
2431	-0.0976323
2430	0.114893
2429	0.217991
2428	-0.0083148
2427	-0.168251
2426	-0.0213792
2425	0.045016
2424	0.0992459
2423	0.100981
2422	0.11962
2421	0.265005
2420	0.253347
2419	0.417064
2418	0.328123
2417	0.153918
2416	0.259004
2415	0.389376
2414	0.296071
2413	0.255384
2412	0.192622
2411	0.00689806
2410	0.180724
2409	-0.201486
2408	0.181813
2407	-0.0160448
2406	0.1502
2405	0.104104
2404	0.137218
2403	0.0570815
2402	0.349786
2401	0.0129318
2400	0.308701
2399	0.185956
2398	0.388744
2397	-0.0679304
2396	0.223563
2395	0.0890757
2394	0.0458826
2393	0.185815
2392	0.351264
2391	0.0741826
2390	-0.198461
2389	0.196254
2388	-0.152483
2387	0.152478
2386	-0.0642127
2385	0.00731279
2384	0.174718
2383	0.192266
2382	0.154879
2381	0.223245
2380	0.325849
2379	-0.0760326
2378	0.292396
2377	0.291585
2376	0.560264
2375	0.232946
2374	0.000436135
2373	0.210787
2372	0.215209
2371	-0.00023975
2370	0.268459
2369	-0.16174
2368	-0.150084
2367	-0.0152866
2366	0.0488613
2365	-0.00849143
2364	0.233838
2363	0.0985102
2362	0.392774
2361	0.207295
2360	0.0683134
2359	0.129894
2358	0.504872
2357	0.257436
2356	0.280949
2355	0.381746
2354	0.213198
2353	0.127804
2352	0.264127
2351	-0.0211674
2350	0.153244
2349	0.0738853
2348	0.169093
2347	-0.0700468
2346	-0.0131826
2345	0.0509624
2344	0.132213
2343	-0.0688137
2342	0.150662
2341	0.144042
2340	0.436947
2339	0.284085
2338	0.466525
2337	0.290712
2336	0.0646042
2335	0.243109
2334	0.264642
2333	0.0967558
2332	0.070129
2331	0.099888
2330	-0.00674671
2329	0.127868
2328	-0.166639
2327	0.0228744
2326	-0.0262925
2325	0.14421
2324	0.188401
2323	0.121371
2322	-0.093609
2321	0.160791
2320	0.319238
2319	-0.0730026
2318	0.00741188
2317	0.252158
2316	0.15785
2315	0.177161
2314	0.138713
2313	0.116605
2312	0.0420539
2311	-0.044666
2310	-0.0986775
2309	-0.22939
2308	0.206751
2307	0.132383
2306	-0.145681
2305	0.00152767
2304	0.271852
2303	0.084969
2302	0.270387
2301	0.234592
2300	0.180365
2299	0.364516
2298	0.237685
2297	0.170785
2296	0.153987
2295	0.0464515
2294	0.116268
2293	0.0609992
2292	0.108758
2291	-0.0715174
2290	0.0765888
2289	-0.250009
2288	0.17101
2287	0.100292
2286	-0.176148
2285	-0.119152
2284	-0.000216143
2283	0.082805
2282	0.141653
2281	0.125189
2280	0.00258808
2279	0.310042
2278	0.200456
2277	0.214827
2276	0.225631
2275	0.156163
2274	0.171858
2273	0.0695675
2272	0.145887
2271	0.0423036
2270	-0.112385
2269	0.0471361
2268	0.132219
2267	-0.0917709
2266	0.0983274
2265	0.131527
2264	0.228886
2263	0.151812
2262	-0.0268523
2261	0.218485
2260	0.0467092
2259	0.403819
2258	0.3659
2257	0.168611
2256	0.122971
2255	0.0868029
2254	0.305086
2253	0.00865638
2252	-0.0396941
2251	0.137472
2250	0.155633
2249	-0.000432043
2248	0.03349
2247	0.0575769
2246	0.154074
2245	0.0659818
2244	0.345624
2243	0.382511
2242	0.125916
2241	0.206286
2240	0.329244
2239	0.152944
2238	0.169609
2237	0.174206
2236	0.130906
2235	-0.0409849
2234	0.100211
2233	-0.0160743
2232	0.153831
2231	0.0243452
2230	0.150665
2229	0.330988
2228	0.157522
2227	0.0748827
2226	0.10437
2225	0.264504
2224	0.390483
2223	0.261263
2222	0.205196
2221	0.324045
2220	0.306082
2219	0.303587
2218	0.184724
2217	0.0373118
2216	0.29163
2215	0.220784
2214	-0.102349
2213	0.113585
2212	-0.0710109
2211	0.188929
2210	-0.0856741
2209	0.100545
2208	0.144213
2207	0.226625
2206	0.140196
2205	0.145547
2204	0.0816722
2203	0.0914581
2202	0.143126
2201	0.271658
2200	0.271093
2199	0.332405
2198	0.0669976
2197	0.0232027
2196	-0.168779
2195	0.0116076
2194	0.135766
2193	-0.0968145
2192	-0.019582
2191	0.141251
2190	0.169103
2189	0.150616
2188	0.0340993
2187	0.266116
2186	0.226799
2185	0.299163
2184	0.328491
2183	0.173323
2182	0.157227
2181	0.113967
2180	0.168571
2179	0.0730183
2178	-0.0494114
2177	-0.0488693
2176	0.223348
2175	0.182706
2174	0.180005
2173	0.00650885
2172	-0.0192918
2171	0.0599735
2170	0.108277
2169	-0.0105583
2168	0.155397
2167	0.0351886
2166	0.248287
2165	0.306058
2164	0.229976
2163	0.202068
2162	0.100458
2161	0.29635
2160	0.122033
2159	0.254208
2158	0.12115
2157	0.265122
2156	-0.0298518
2155	0.363601
2154	0.0704233
2153	-0.130154
2152	0.160079
2151	0.0388069
2150	0.25677
2149	0.0784102
2148	0.216828
2147	0.0143817
2146	0.263044
2145	-0.10289
2144	0.174743
2143	0.22293
2142	0.496348
2141	0.29016
2140	0.119861
2139	0.125991
2138	0.124094
2137	0.12074
2136	0.184926
2135	0.0498988
2134	-0.228949
2133	-0.0164182
2132	0.202809
2131	0.250714
2130	0.121149
2129	-0.0215683
2128	0.270925
2127	0.200882
2126	0.0060547
2125	0.155591
2124	0.264141
2123	0.175076
2122	0.365291
2121	0.117462
2120	0.25529
2119	0.046748
2118	0.218776
2117	-0.00278562
2116	-0.083494
2115	-0.280836
2114	0.0516397
2113	-0.0856476
2112	0.128756
2111	0.0979255
2110	0.133476
2109	0.23085
2108	0.159751
2107	0.103816
2106	0.172888
2105	0.368345
2104	0.200247
2103	0.210347
2102	0.0213413
2101	0.293363
2100	0.133915
2099	-0.081429
2098	-0.0353111
2097	0.0680241
2096	0.076065
2095	-0.102003
2094	0.0961044
2093	0.0499812
2092	-0.0439404
2091	-0.101408
2090	0.269655
2089	0.200242
2088	0.0581362
2087	0.180202
2086	0.170963
2085	0.261066
2084	0.105645
2083	0.0939704
2082	0.280103
2081	0.172204
2080	-0.0105157
2079	-0.0294739
2078	0.124142
2077	0.123669
2076	0.263815
2075	0.003038
2074	-0.0565553
2073	-0.00603902
2072	0.131962
2071	0.104645
2070	0.0515062
2069	0.1936
2068	0.173384
2067	0.118618
2066	0.186527
2065	0.218059
2064	0.062466
2063	0.0876788
2062	0.0265206
2061	0.0216195
2060	0.0841011
2059	-0.0111448
2058	-0.0656517
2057	-0.016866
2056	0.0283751
2055	0.00734158
2054	0.0108965
2053	0.0781705
2052	0.0680002
2051	0.132507
2050	0.231882
2049	0.152451
2048	0.242211
2047	0.0946973
2046	0.276159
2045	0.275357
2044	0.165699
2043	0.106048
2042	0.231341
2041	0.272416
2040	0.0893077
2039	0.0735717
2038	0.0516814
2037	0.110195
2036	0.0983881
2035	-0.00894302
2034	0.058137
2033	0.235997
2032	0.123301
2031	0.243463
2030	0.124614
2029	0.118765
2028	0.336987
2027	0.170465
2026	-0.0331997
2025	0.167325
2024	0.119669
2023	0.197365
2022	0.0472213
2021	0.293803
2020	0.163847
2019	0.0963244
2018	0.212009
2017	0.0719099
2016	0.0494134
2015	0.0701626
2014	0.176485
2013	0.107742
2012	0.171705
2011	0.102921
2010	0.0470734
2009	0.183291
2008	0.155564
2007	0.0782294
2006	0.194696
2005	0.260789
2004	0.0853259
2003	0.127069
2002	0.257774
2001	0.0677564
2000	0.148637
1999	0.15662
1998	0.0676764
1997	0.12865
1996	0.183601
1995	0.109098
1994	0.0289475
1993	0.1389
1992	0.244244
1991	0.146399
1990	0.163001
1989	0.220051
1988	0.18431
1987	0.150616
1986	0.102301
1985	0.250558
1984	0.199727
1983	0.137862
1982	-0.0682154
1981	0.0732157
1980	0.122457
1979	-0.0218825
1978	0.16234
1977	0.0148568
1976	0.107049
1975	0.133782
1974	0.205227
1973	0.079353
1972	0.0172327
1971	0.131873
1970	0.133706
1969	0.265919
1968	0.178354
1967	0.249714
1966	0.190911
1965	0.2905
1964	0.170809
1963	0.204916
1962	0.168096
1961	0.127245
1960	0.0556406
1959	0.135666
1958	-0.00255237
1957	0.0860506
1956	0.146213
1955	0.095734
1954	0.0852885
1953	0.115195
1952	-0.0489879
1951	0.265769
1950	0.164586
1949	0.114339
1948	0.271465
1947	0.177064
1946	0.130706
1945	0.145661
1944	0.184717
1943	0.144562
1942	0.105494
1941	0.177886
1940	0.0419379
1939	0.133582
1938	0.0639469
1937	-0.0346622
1936	0.0287108
1935	0.226637
1934	0.0709517
1933	0.0889851
1932	0.244697
1931	0.0958723
1930	0.172874
1929	0.1949
1928	0.00745368
1927	0.126318
1926	0.124377
1925	0.0474786
1924	0.0758028
1923	-0.12702
1922	-0.0222194
1921	0.085246
1920	0.0388064
1919	-0.167714
1918	0.148221
1917	0.0606524
1916	0.14517
1915	0.118797
1914	0.199513
1913	0.0543227
1912	0.225249
1911	0.211363
1910	0.216489
1909	0.216627
1908	0.0895216
1907	0.189684
1906	-0.0534757
1905	0.132918
1904	0.18351
1903	0.117139
1902	0.118634
1901	0.0343548
1900	0.169497
1899	0.119441
1898	0.176113
1897	0.136367
1896	0.104363
1895	0.137688
1894	0.144827
1893	0.226055
1892	0.240676
1891	0.266209
1890	0.14548
1889	0.211445
1888	0.0815434
1887	0.119603
1886	0.144781
1885	0.075271
1884	0.0308196
1883	0.0992083
1882	-5.82892E-05
1881	0.0524405
1880	0.208693
1879	0.118498
1878	0.213215
1877	0.270487
1876	0.107632
1875	0.172422
1874	0.200583
1873	0.27376
1872	0.100772
1871	0.21628
1870	0.309261
1869	0.0554382
1868	0.0885831
1867	0.139784
1866	0.0236984
1865	0.219077
1864	0.131058
1863	0.0807967
1862	0.112209
1861	0.234778
1860	0.166173
1859	0.0975412
1858	0.253409
1857	0.188988
1856	0.0876963
1855	0.159426
1854	0.189323
1853	0.199157
1852	0.0324188
1851	0.108521
1850	0.0626503
1849	0.106221
1848	0.119867
1847	0.0361181
1846	0.07293
1845	0.231663
1844	0.173355
1843	0.0975446
1842	0.185138
1841	0.146095
1840	0.158951
1839	0.204362
1838	0.181222
1837	0.238926
1836	0.115991
1835	0.161131
1834	0.208988
1833	0.118116
1832	0.122696
1831	0.120494
1830	-0.0387486
1829	0.0717045
1828	0.06991
1827	0.0731584
1826	0.0724355
1825	0.126073
1824	0.108758
1823	0.136402
1822	0.135126
1821	0.172933
1820	0.209329
1819	0.154876
1818	0.186196
1817	0.215236
1816	0.140277
1815	0.157904
1814	0.071507
1813	0.100795
1812	0.0312002
1811	0.0927189
1810	0.0333786
1809	0.130532
1808	0.0724348
1807	0.159936
1806	0.11081
1805	0.155448
1804	0.160751
1803	0.129087
1802	0.156217
1801	0.202955
1800	0.132699
1799	0.175887
1798	0.234149
1797	0.206401
1796	0.164135
1795	0.105387
1794	0.0700817
1793	0.077007
1792	0.140856
1791	0.190459
1790	0.0801188
1789	0.0931292
1788	0.0935903
1787	0.158926
1786	0.14046
1785	0.0554619
1784	0.139415
1783	0.102959
1782	0.177408
1781	0.131408
1780	0.163808
1779	0.167803
1778	0.18176
1777	0.142137
1776	0.11923
1775	0.119203
1774	0.0846406
1773	0.128304
1772	0.107912
1771	0.150391
1770	0.125727
1769	0.138543
1768	0.112771
1767	0.139445
1766	0.189003
1765	0.182981
1764	0.165666
1763	0.190272
1762	0.164324
1761	0.183307
1760	0.135479
1759	0.102612
1758	0.118279
1757	0.146252
1756	0.150354
1755	0.115755
1754	0.100218
1753	0.100753
1752	0.0681853
1751	0.169545
1750	0.131871
1749	0.163145
1748	0.0968596
1747	0.173757
1746	0.152523
1745	0.17268
1744	0.191929
1743	0.139028
1742	0.191681
1741	0.184441
1740	0.116533
1739	0.128247
1738	0.144021
1737	0.0840446
1736	0.141235
1735	0.0603741
1734	0.182171
1733	0.173668
1732	0.0853126
1731	0.162773
1730	0.158937
1729	0.201685
1728	0.142418
1727	0.103661
1726	0.123272
1725	0.183342
1724	0.134727
1723	0.129762
1722	0.0988238
1721	0.0876643
1720	0.0952707
1719	0.0950535
1718	0.0921269
1717	0.134536
1716	0.12754
1715	0.140834
1714	0.143911
1713	0.0787129
1712	0.208761
1711	0.256401
1710	0.111354
1709	0.150208
1708	0.106056
1707	0.272824
1706	0.222038
1705	0.171804
1704	0.170984
1703	0.0455311
1702	0.153232
1701	0.149249
1700	0.0393934
1699	0.166778
1698	0.0888482
1697	0.0720284
1696	0.0837231
1695	0.173462
1694	0.153301
1693	0.0839429
1692	0.12502
1691	0.156568
1690	0.215056
1689	0.125856
1688	0.13053
1687	0.203257
1686	0.177917
1685	0.232078
1684	0.101948
1683	0.0904958
1682	0.0720183
1681	0.174303
1680	0.0612314
1679	0.091848
1678	0.160638
1677	0.0816488
1676	0.151167
1675	0.107558
1674	0.120396
1673	0.175925
1672	0.133318
1671	0.150483
1670	0.141447
1669	0.191662
1668	0.166289
1667	0.124862
1666	0.155929
1665	0.137074
1664	0.0834845
1663	0.103223
1662	0.169147
1661	0.153769
1660	0.10601
1659	0.144563
1658	0.106694
1657	0.0957824
1656	0.14852
1655	0.120069
1654	0.150391
1653	0.0974826
1652	0.180747
1651	0.180429
1650	0.175566
1649	0.227747
1648	0.129059
1647	0.12143
1646	0.148327
1645	0.165253
1644	0.110951
1643	0.0541326
1642	0.0723305
1641	0.146345
1640	0.124474
1639	0.107347
1638	0.195617
1637	0.17144
1636	0.135256
1635	0.108492
1634	0.166086
1633	0.0980173
1632	0.123283
1631	0.214926
1630	0.196304
1629	0.157088
1628	0.113559
1627	0.127258
1626	0.12286
1625	0.0881217
1624	0.131599
1623	0.130569
1622	0.069193
1621	0.0910659
1620	0.112834
1619	0.0842254
1618	0.0742344
1617	0.149105
1616	0.114252
1615	0.130995
1614	0.122667
1613	0.174339
1612	0.203541
1611	0.11261
1610	0.118525
1609	0.134637
1608	0.0948324
1607	0.0269713
1606	0.103958
1605	0.0551644
1604	0.0711241
1603	0.161268
1602	0.136303
1601	0.114703
1600	0.102549
1599	0.110298
1598	0.210817
1597	0.0778777
1596	0.155974
1595	0.220651
1594	0.188309
1593	0.134755
1592	0.133075
1591	0.123024
1590	0.0753025
1589	0.117831
1588	0.116015
1587	0.0406971
1586	0.0551214
1585	0.0899242
1584	0.0896462
1583	0.0967127
1582	0.0650236
1581	0.16668
1580	0.156909
1579	0.152719
1578	0.13684
1577	0.130506
1576	0.130335
1575	0.167301
1574	0.106288
1573	0.0655774
1572	0.098566
1571	0.131046
1570	0.0577629
1569	0.0923128
1568	0.0958852
1567	0.110929
1566	0.118997
1565	0.0882913
1564	0.121766
1563	0.100735
1562	0.0881636
1561	0.135826
1560	0.0986199
1559	0.167536
1558	0.120452
1557	0.160355
1556	0.168317
1555	0.125769
1554	0.162646
1553	0.0914667
1552	0.138136
1551	0.094963
1550	0.08603
1549	0.0690552
1548	0.0756249
1547	0.112927
1546	0.106255
1545	0.12473
1544	0.161895
1543	0.126593
1542	0.107998
1541	0.11224
1540	0.15485
1539	0.115847
1538	0.166047
1537	0.119174
1536	0.148407
1535	0.0627153
1534	0.124322
1533	0.0904054
1532	0.109526
1531	0.0702609
1530	0.11481
1529	0.0847647
1528	0.096369
1527	0.131969
1526	0.0752173
1525	0.0901704
1524	0.130692
1523	0.115694
1522	0.134426
1521	0.189838
1520	0.141983
1519	0.124872
1518	0.178575
1517	0.154677
1516	0.103031
1515	0.114129
1514	0.120739
1513	0.0994227
1512	0.0745172
1511	0.0805941
1510	0.0935934
1509	0.0626178
1508	0.104774
1507	0.158413
1506	0.11246
1505	0.159961
1504	0.138159
1503	0.147019
1502	0.0951108
1501	0.174536
1500	0.101232
1499	0.0661116
1498	0.125694
1497	0.0658354
1496	0.124788
1495	0.0967203
1494	0.074942
1493	0.0439008
1492	0.0885491
1491	0.0507142
1490	0.128328
1489	0.117286
1488	0.130259
1487	0.119006
1486	0.0816426
1485	0.0845062
1484	0.135614
1483	0.131249
1482	0.166391
1481	0.132514
1480	0.14506
1479	0.109563
1478	0.0750727
1477	0.101966
1476	0.0964743
1475	0.129257
1474	0.0655429
1473	0.0731926
1472	0.0825185
1471	0.121822
1470	0.119721
1469	0.0859094
1468	0.175159
1467	0.132069
1466	0.0987144
1465	0.111748
1464	0.100488
1463	0.11144
1462	0.0983878
1461	0.145523
1460	0.122161
1459	0.0519059
1458	0.126818
1457	0.101913
1456	0.0509757
1455	0.138794
1454	0.0843044
1453	0.100858
1452	0.119762
1451	0.106286
1450	0.103841
1449	0.136364
1448	0.143804
1447	0.0857638
1446	0.131335
1445	0.114507
1444	0.177696
1443	0.0871118
1442	0.110552
1441	0.073293
1440	0.112423
1439	0.145247
1438	0.0788228
1437	0.0629344
1436	0.0885766
1435	0.133737
1434	0.130929
1433	0.160767
1432	0.136744
1431	0.136479
1430	0.112578
1429	0.0833936
1428	0.152928
1427	0.165407
1426	0.0989348
1425	0.130621
1424	0.128356
1423	0.0946439
1422	0.0664705
1421	0.0841673
1420	0.116198
1419	0.128267
1418	0.0968836
1417	0.0789966
1416	0.117288
1415	0.128042
1414	0.133737
1413	0.0689652
1412	0.08738
1411	0.162851
1410	0.130436
1409	0.14389
1408	0.124321
1407	0.142212
1406	0.148858
1405	0.0991893
1404	0.11629
1403	0.0926438
1402	0.0562698
1401	0.127737
1400	0.095176
1399	0.0733994
1398	0.130501
1397	0.164933
1396	0.206703
1395	0.108534
1394	0.138564
1393	0.152745
1392	0.178825
1391	0.15873
1390	0.164931
1389	0.115145
1388	0.107948
1387	0.118056
1386	0.100195
1385	0.0663966
1384	0.140908
1383	0.100229
1382	0.117213
1381	0.0874564
1380	0.138659
1379	0.102617
1378	0.105464
1377	0.147596
1376	0.13292
1375	0.162254
1374	0.154504
1373	0.0455611
1372	0.141879
1371	0.101846
1370	0.126046
1369	0.0922758
1368	0.143167
1367	0.121296
1366	0.0707978
1365	0.106655
1364	0.118895
1363	0.134581
1362	0.158596
1361	0.0967509
1360	0.0872542
1359	0.156803
1358	0.107979
1357	0.164523
1356	0.17617
1355	0.159545
1354	0.144184
1353	0.111943
1352	0.187927
1351	0.159256
1350	0.11572
1349	0.133115
1348	0.112186
1347	0.110326
1346	0.0940046
1345	0.127781
1344	0.110646
1343	0.138432
1342	0.169946
1341	0.166721
1340	0.120448
1339	0.109958
1338	0.185076
1337	0.112186
1336	0.188678
1335	0.1711
1334	0.158949
1333	0.102007
1332	0.140554
1331	0.126703
1330	0.112722
1329	0.108062
1328	0.116501
1327	0.128535
1326	0.123604
1325	0.138182
1324	0.169915
1323	0.172643
1322	0.175383
1321	0.169589
1320	0.139033
1319	0.170045
1318	0.148061
1317	0.160878
1316	0.150029
1315	0.13588
1314	0.141854
1313	0.11238
1312	0.157241
1311	0.11473
1310	0.101732
1309	0.168768
1308	0.122079
1307	0.147621
1306	0.0900291
1305	0.156199
1304	0.145072
1303	0.185281
1302	0.163604
1301	0.146907
1300	0.130951
1299	0.191055
1298	0.108897
1297	0.133323
1296	0.124942
1295	0.12243
1294	0.0821164
1293	0.102037
1292	0.108696
1291	0.113328
1290	0.13381
1289	0.105645
1288	0.0985246
1287	0.1366
1286	0.0956384
1285	0.160549
1284	0.143218
1283	0.156071
1282	0.101103
1281	0.0962694
1280	0.15461
1279	0.157359
1278	0.126929
1277	0.141589
1276	0.125901
1275	0.133378
1274	0.101242
1273	0.118847
1272	0.103647
1271	0.127968
1270	0.0706764
1269	0.0969582
1268	0.0924845
1267	0.10721
1266	0.136206
1265	0.123526
1264	0.149473
1263	0.161239
1262	0.124944
1261	0.099837
1260	0.143346
1259	0.140552
1258	0.154543
1257	0.136155
1256	0.146801
1255	0.0708085
1254	0.1203
1253	0.128513
1252	0.135272
1251	0.148685
1250	0.132464
1249	0.145546
1248	0.1185
1247	0.140745
1246	0.135378
1245	0.197467
1244	0.136545
1243	0.151483
1242	0.107662
1241	0.129833
1240	0.122088
1239	0.0908615
1238	0.115212
1237	0.123163
1236	0.0972431
1235	0.104473
1234	0.152259
1233	0.145648
1232	0.131345
1231	0.148401
1230	0.111439
1229	0.135107
1228	0.0633601
1227	0.0472992
1226	0.152736
1225	0.150926
1224	0.172704
1223	0.132664
1222	0.167875
1221	0.0979027
1220	0.116774
1219	0.14911
1218	0.110448
1217	0.155915
1216	0.115403
1215	0.119896
1214	0.0915697
1213	0.116547
1212	0.0919388
1211	0.134625
1210	0.138505
1209	0.117623
1208	0.131111
1207	0.126704
1206	0.100675
1205	0.130488
1204	0.12174
1203	0.169136
1202	0.116877
1201	0.0995852
1200	0.124394
1199	0.1503
1198	0.161004
1197	0.155704
1196	0.138635
1195	0.0917539
1194	0.13525
1193	0.119925
1192	0.113526
1191	0.113135
1190	0.104487
1189	0.124195
1188	0.137918
1187	0.0513567
1186	0.138631
1185	0.137023
1184	0.135103
1183	0.165522
1182	0.10483
1181	0.165451
1180	0.130464
1179	0.118647
1178	0.101424
1177	0.177518
1176	0.13219
1175	0.108822
1174	0.0918989
1173	0.0887124
1172	0.118007
1171	0.122361
1170	0.122961
1169	0.118245
1168	0.142367
1167	0.139534
1166	0.141061
1165	0.134904
1164	0.159874
1163	0.104967
1162	0.13083
1161	0.106182
1160	0.159128
1159	0.163359
1158	0.144961
1157	0.114474
1156	0.10669
1155	0.152708
1154	0.0786089
1153	0.117439
1152	0.0886775
1151	0.0889428
1150	0.135439
1149	0.109603
1148	0.129144
1147	0.118697
1146	0.154364
1145	0.126196
1144	0.173534
1143	0.177785
1142	0.160509
1141	0.121856
1140	0.141417
1139	0.134849
1138	0.129986
1137	0.161881
1136	0.100905
1135	0.0967892
1134	0.0775779
1133	0.118291
1132	0.115191
1131	0.0999176
1130	0.115259
1129	0.117771
1128	0.109352
1127	0.111008
1126	0.18631
1125	0.150116
1124	0.188787
1123	0.143967
1122	0.184781
1121	0.0991625
1120	0.125927
1119	0.164746
1118	0.147333
1117	0.101805
1116	0.110247
1115	0.0627269
1114	0.100854
1113	0.147906
1112	0.15737
1111	0.129272
1110	0.118393
1109	0.198925
1108	0.0998369
1107	0.193072
1106	0.135407
1105	0.16247
1104	0.112453
1103	0.137918
1102	0.127662
1101	0.118523
1100	0.0890924
1099	0.117942
1098	0.151811
1097	0.138351
1096	0.14335
1095	0.118901
1094	0.131598
1093	0.139331
1092	0.126997
1091	0.17808
1090	0.180114
1089	0.156767
1088	0.126021
1087	0.164339
1086	0.182314
1085	0.177674
1084	0.139948
1083	0.119694
1082	0.116703
1081	0.0673718
1080	0.138969
1079	0.115407
1078	0.145908
1077	0.107736
1076	0.110666
1075	0.126793
1074	0.107443
1073	0.117883
1072	0.176326
1071	0.132216
1070	0.135957
1069	0.185556
1068	0.11632
1067	0.127202
1066	0.120679
1065	0.099688
1064	0.119663
1063	0.110132
1062	0.156427
1061	0.110035
1060	0.174836
1059	0.117425
1058	0.16001
1057	0.166876
1056	0.184419
1055	0.211026
1054	0.139595
1053	0.241431
1052	0.188057
1051	0.129685
1050	0.124636
1049	0.0766913
1048	0.0804516
1047	0.0427104
1046	0.104302
1045	0.117685
1044	0.137233
1043	0.135059
1042	0.0864438
1041	0.129336
1040	0.167139
1039	0.136887
1038	0.190301
1037	0.129608
1036	0.156597
1035	0.144202
1034	0.162987
1033	0.177348
1032	0.117458
1031	0.102624
1030	0.14225
1029	0.0786557
1028	0.0080458
1027	0.0945711
1026	0.0819228
1025	0.0700595
1024	0.152756
1023	0.138935
1022	0.124153
1021	0.133138
1020	0.204725
1019	0.200864
1018	0.155088
1017	0.132775
1016	0.0884713
1015	0.131278
1014	0.0160466
1013	0.0659599
1012	0.0710362
1011	0.0893812
1010	0.188584
1009	0.0809585
1008	0.126747
1007	0.0905008
1006	0.0758279
1005	0.174501
1004	0.117196
1003	0.14123
1002	0.138906
1001	0.181401
1000	0.123208
999	0.122496
998	0.124197
997	0.135944
996	-0.0120524
995	0.144427
994	0.0347778
993	0.030602
992	0.105259
991	0.0946834
990	0.133979
989	0.161155
988	0.158441
987	0.214125
986	0.1677
985	0.189195
984	0.166739
983	0.155072
982	0.111903
981	0.194722
980	0.0677971
979	0.0569911
978	0.139166
977	0.104777
976	0.127315
975	0.0902712
974	0.116298
973	0.180207
972	0.159518
971	0.160668
970	0.11853
969	0.0949012
968	0.242856
967	0.230443
966	0.225719
965	0.120794
964	0.141648
963	0.115574
962	0.111779
961	0.0666337
960	-0.00906697
959	0.129515
958	0.0587821
957	0.149536
956	0.0530099
955	0.0512569
954	0.160271
953	0.0911819
952	0.198912
951	0.193384
950	0.132254
949	0.0865477
948	0.163103
947	0.121449
946	0.144689
945	0.035287
944	0.161103
943	0.115412
942	-0.045184
941	0.117964
940	0.129337
939	0.162334
938	0.235065
937	0.141877
936	0.240016
935	0.172925
934	0.189703
933	0.269763
932	0.115409
931	0.159028
930	0.196278
929	0.0768032
928	0.0814526
927	0.0336729
926	0.0111139
925	0.123033
924	0.278095
923	0.175725
922	0.176207
921	0.358944
920	0.397223
919	0.265793
918	0.338861
917	0.294433
916	0.0847248
915	0.100512
914	0.228231
913	-0.124638
912	0.0315471
911	0.112495
910	0.113114
909	0.198999
908	0.0387242
907	0.0794672
906	0.333276
905	0.295159
904	0.111081
903	0.235928
902	0.126561
901	0.226037
900	0.0568936
899	-0.153368
898	0.114595
897	0.0379265
896	0.0860804
895	0.0171195
894	0.169746
893	0.0689624
892	0.197537
891	0.280319
890	0.203503
889	0.311022
888	0.259567
887	0.371193
886	0.0973693
885	0.159802
884	-0.180272
883	0.0921922
882	0.103734
881	-0.306951
880	0.0611849
879	0.0052718
878	0.112538
877	0.270963
876	0.0901441
875	0.289324
874	0.3836
873	0.245187
872	0.3424
871	0.498646
870	0.119173
869	0.272003
868	0.297271
867	-0.181637
866	0.203803
865	0.0281813
864	-0.0839927
863	0.106317
862	0.519794
861	0.18351
860	0.484725
859	0.322643
858	0.25411
857	0.58525
856	0.647136
855	0.121868
854	0.085574
853	0.295872
852	0.144278
851	0.0959265
850	0.103297
849	0.0936578
848	0.0938643
847	0.0988382
846	0.0969592
845	0.101145
844	0.105038
843	0.106776
842	0.101217
841	0.0979708
840	0.103645
839	0.104604
838	0.102495
837	0.0963601
836	0.0955549
835	0.0948772
834	0.0929309
833	0.0975304
832	0.0998138
831	0.102447
830	0.100729
829	0.10582
828	0.102593
827	0.100903
826	0.101481
825	0.102623
824	0.0970494
823	0.0956931
822	0.0935426
821	0.0935867
820	0.0973337
819	0.0994376
818	0.10293
817	0.101086
816	0.102538
815	0.10309
814	0.101143
813	0.0992789
812	0.0984873
811	0.0989212
810	0.0931099
809	0.0939413
808	0.0935396
807	0.0985917
806	0.0981068
805	0.1019
804	0.100116
803	0.102049
802	0.10015
801	0.101415
800	0.0995201
799	0.0992215
798	0.0982029
797	0.0948415
796	0.0926856
795	0.0939594
794	0.0943487
793	0.0975611
792	0.0990935
791	0.101762
790	0.100654
789	0.101717
788	0.100468
787	0.0978492
786	0.0969855
785	0.0955262
784	0.0950596
783	0.0936865
782	0.0917529
781	0.0960853
780	0.0982593
779	0.0991702
778	0.101266
777	0.102521
776	0.101225
775	0.100574
774	0.0973953
773	0.0953733
772	0.0949343
771	0.0920933
770	0.092656
769	0.0941496
768	0.0977835
767	0.098964
766	0.1026
765	0.100813
764	0.0998106
763	0.100482
762	0.0982681
761	0.0965027
760	0.0949859
759	0.0953025
758	0.091263
757	0.0937981
756	0.0950834
755	0.0969793
754	0.0989143
753	0.100307
752	0.0999537
751	0.100885
750	0.0998634
749	0.0964011
748	0.0946046
747	0.0947394
746	0.0930031
745	0.0925897
744	0.0943509
743	0.0960917
742	0.0984974
741	0.100184
740	0.101952
739	0.100828
738	0.098837
737	0.097882
736	0.0953581
735	0.0939395
734	0.0907324
733	0.0920414
732	0.0941402
731	0.0949898
730	0.0977867
729	0.100583
728	0.100646
727	0.0998592
726	0.100009
725	0.0986969
724	0.0948161
723	0.0935574
722	0.0920878
721	0.0910252
720	0.0919939
719	0.0940283
718	0.0943701
717	0.0977541
716	0.100236
715	0.0996442
714	0.098922
713	0.0980431
712	0.0970125
711	0.0944364
710	0.0929218
709	0.0915576
708	0.0913244
707	0.0924226
706	0.0954172
705	0.097493
704	0.097772
703	0.0996984
702	0.0984535
701	0.0982408
700	0.0971384
699	0.0932449
698	0.0922482
697	0.090473
696	0.0910661
695	0.0919023
694	0.0936064
693	0.0960602
692	0.0981836
691	0.0991409
690	0.0978036
689	0.0968968
688	0.0943033
687	0.0929916
686	0.0904338
685	0.0868765
684	0.0873158
683	0.0876831
682	0.090453
681	0.0932102
680	0.0941712
679	0.0960892
678	0.0972067
677	0.0954552
676	0.0936065
675	0.0919041
674	0.0901378
673	0.087767
672	0.0884778
671	0.089121
670	0.0897242
669	0.0930227
668	0.0950151
667	0.0965639
666	0.094992
665	0.0957214
664	0.0932566
663	0.0910284
662	0.0879227
661	0.0878712
660	0.0871858
659	0.0878318
658	0.090107
657	0.0916696
656	0.0924711
655	0.0954886
654	0.0948472
653	0.0944775
652	0.0921366
651	0.0914872
650	0.0887522
649	0.0867295
648	0.0860887
647	0.0869203
646	0.0886666
645	0.0898371
644	0.0931653
643	0.0948936
642	0.0938796
641	0.0939049
640	0.0917272
639	0.0902
638	0.0880784
637	0.0866936
636	0.0844736
635	0.085441
634	0.0878322
633	0.0895555
632	0.0917134
631	0.0929131
630	0.0933044
629	0.092474
628	0.0912122
627	0.0886293
626	0.086781
625	0.0858069
624	0.0846783
623	0.0841605
622	0.0867861
621	0.0877574
620	0.0840079
619	0.0873712
618	0.0880749
617	0.0906069
616	0.0915734
615	0.0919301
614	0.0905308
613	0.0879991
612	0.0875555
611	0.0850428
610	0.083063
609	0.0817557
608	0.0811977
607	0.0837522
606	0.086433
605	0.0873119
604	0.0893144
603	0.0909476
602	0.087961
601	0.0884925
600	0.0861302
599	0.0844609
598	0.0810617
597	0.0807294
596	0.0798454
595	0.0805475
594	0.0827963
593	0.0837214
592	0.0866522
591	0.0879321
590	0.0880015
589	0.0879594
588	0.0853545
587	0.0841777
586	0.0814893
585	0.0800672
584	0.0792638
583	0.0789677
582	0.0798294
581	0.0814944
580	0.0851024
579	0.0857635
578	0.0873547
577	0.0864225
576	0.0857601
575	0.0840987
574	0.082072
573	0.0797013
572	0.077842
571	0.078146
570	0.0790597
569	0.0804101
568	0.0825654
567	0.0845095
566	0.086192
565	0.0877214
564	0.0869733
563	0.084599
562	0.084535
561	0.0807646
560	0.0807865
559	0.0783976
558	0.0788128
557	0.0792428
556	0.0810008
555	0.0831218
554	0.0852716
553	0.0866915
552	0.0863341
551	0.0861078
550	0.0845714
549	0.0833731
548	0.0806407
547	0.079155
546	0.0787303
545	0.0783112
544	0.0799115
543	0.0812502
542	0.083233
541	0.0848198
540	0.0872791
539	0.0859578
538	0.0864102
537	0.0842329
536	0.0837187
535	0.0805447
534	0.0797816
533	0.0786821
532	0.0792916
531	0.0801931
530	0.0819008
529	0.0843535
528	0.0867654
527	0.0875827
526	0.0871127
525	0.0872578
524	0.0838206
523	0.0828774
522	0.0808802
521	0.0783975
520	0.0779033
519	0.0788345
518	0.0808281
517	0.0824613
516	0.084982
515	0.0857648
514	0.0872334
513	0.0870675
512	0.0849997
511	0.0833573
510	0.0791575
509	0.0810846
508	0.0826662
507	0.0842892
506	0.0872011
505	0.0868734
504	0.0871379
503	0.0847709
502	0.0830575
501	0.080816
500	0.0781578
499	0.0781451
498	0.0789174
497	0.0791493
496	0.0811978
495	0.083087
494	0.0858583
493	0.0857129
492	0.0868405
491	0.0856024
490	0.0836943
489	0.0824917
488	0.0794324
487	0.0781805
486	0.0775627
485	0.0785366
484	0.0793442
483	0.0808977
482	0.0831598
481	0.0833151
480	0.0855732
479	0.0852704
478	0.084305
477	0.082595
476	0.0791616
475	0.0785387
474	0.077163
473	0.0767986
472	0.0762231
471	0.078034
470	0.0808262
469	0.0826344
468	0.0838308
467	0.0850448
466	0.0827639
465	0.0825848
464	0.0809432
463	0.078492
462	0.0759851
461	0.0754588
460	0.0759513
459	0.0758635
458	0.0764194
457	0.080677
456	0.0814999
455	0.0827813
454	0.0828806
453	0.0823746
452	0.0795773
451	0.0770507
450	0.0749576
449	0.073868
448	0.0724044
447	0.0731626
446	0.0751218
445	0.0755354
444	0.0798898
443	0.0800795
442	0.0812595
441	0.0798473
440	0.0790862
439	0.0766793
438	0.0750976
437	0.0726514
436	0.0722235
435	0.0728113
434	0.0718015
433	0.074132
432	0.0747256
431	0.077942
430	0.0775966
429	0.0799263
428	0.0775323
427	0.0766945
426	0.0748477
425	0.0733272
424	0.0701955
423	0.0679861
422	0.0671428
421	0.068273
420	0.0707436
419	0.0711528
418	0.0729618
417	0.0750718
416	0.0769981
415	0.0749013
414	0.0739067
413	0.0730629
412	0.0710467
411	0.0682519
410	0.0728197
409	0.0745702
408	0.0738005
407	0.0729805
406	0.0710153
405	0.070081
404	0.06693
403	0.0643293
402	0.0628279
401	0.063594
400	0.0630395
399	0.0649436
398	0.0664934
397	0.0689454
396	0.0686362
395	0.0706262
394	0.0687781
393	0.0672648
392	0.0653341
391	0.0639362
390	0.0619004
389	0.0584473
388	0.0560013
387	0.0568818
386	0.0582421
385	0.0622737
384	0.060947
383	0.0622904
382	0.0624977
381	0.061545
380	0.0611881
379	0.0584562
378	0.0572248
377	0.0546161
376	0.0529393
375	0.0509177
374	0.0496304
373	0.0494639
372	0.051607
371	0.0528287
370	0.0528401
369	0.0527366
368	0.0507431
367	0.0479922
366	0.047663
365	0.0449693
364	0.0439206
363	0.046381
362	0.0481129
361	0.0518843
360	0.0494332
359	0.049953
358	0.0477472
357	0.0474418
356	0.0461505
355	0.0445527
354	0.0416298
353	0.0413716
352	0.0354107
351	0.0361645
350	0.0377727
349	0.0411703
348	0.0421902
347	0.0435605
346	0.0408699
345	0.0411797
344	0.0411117
343	0.0389492
342	0.0349196
341	0.0375274
340	0.0302376
339	0.0275396
338	0.0277318
337	0.0341506
336	0.0343464
335	0.0338867
334	0.0316817
333	0.03099
332	0.0300036
331	0.0309487
330	0.0302648
329	0.0293403
328	0.0255285
327	0.0233985
326	0.019298
325	0.0189939
324	0.0159393
323	0.0219196
322	0.0231019
321	0.0264848
320	0.0250738
319	0.0238015
318	0.0219051
317	0.0230086
316	0.0219652
315	0.0200545
314	0.0192475
313	0.0159243
312	0.0140049
311	0.011697
310	0.0128245
309	0.0138282
308	0.0161546
307	0.0185801
306	0.0203186
305	0.018945
304	0.0183227
303	0.0171721
302	0.0172333
301	0.0172339
300	0.0155746
299	0.0130291
298	0.0103316
297	0.00858903
296	0.00593508
295	0.0074552
294	0.0103212
293	0.0129742
292	0.0146323
291	0.0131629
290	0.0144889
289	0.0126761
288	0.0130119
287	0.0116742
286	0.0111383
285	0.00853513
284	0.00730843
283	0.00598864
282	0.00371574
281	0.00353128
280	0.00539913
279	0.00751209
278	0.00957773
277	0.010813
276	0.0100859
275	0.0112073
274	0.0105898
273	0.00997994
272	0.00781017
271	0.00590765
270	0.00420551
269	0.00261377
268	0.00187567
267	0.000727841
266	0.00174794
265	0.00322511
264	0.00494914
263	0.0068104
262	0.00708448
261	0.00877972
260	0.00765839
259	0.0080495
258	0.00528966
257	0.0045086
256	0.00150236
255	0.000739517
254	-0.000841867
253	-0.00169667
252	-0.00153654
251	-8.09033E-05
250	0.000767355
249	0.00328964
248	0.00458822
247	0.00519831
246	0.00632103
245	0.005675
244	0.00507545
243	0.00310955
242	0.00170572
241	-0.000460008
240	-0.00205976
239	-0.00283549
238	-0.00359196
237	-0.002481
236	-0.00153065
235	0.000444342
234	0.0023565
233	0.00337889
232	0.0045521
231	0.00464852
230	0.00427981
229	0.00394419
228	0.0014625
227	0.00101133
226	-0.00189887
225	-0.0032967
224	-0.00423865
223	-0.00433957
222	-0.00373813
221	-0.00177821
220	-0.000775607
219	0.00146315
218	0.00254068
217	0.00348448
216	0.00298574
215	0.00336355
214	0.00180739
213	5.80825E-05
212	-0.000488953
211	-0.00334609
210	-0.0039698
209	-0.00573408
208	-0.00561063
207	-0.00455856
206	-0.00289492
205	-0.00106775
204	0.00117256
203	0.00451899
202	0.00328564
201	0.00134674
200	0.0016463
199	0.00178347
198	0.000214111
197	-0.0019713
196	-0.0031054
195	-0.0125291
194	-0.00797929
193	-0.0138613
192	-0.0180514
191	-0.00973551
190	-0.0361046



[コメント情報]
試料名	ｾﾙﾛ
オペレーター	
所属	
コメント	

[データ情報]
作成日時	2017/09/15 13:04
スタート	2700 nm
エンド	190 nm
データ間隔	1 nm
データ数	2511    

[測定情報]
機種名	V-770
シリアル番号	A034761801
測光モード	%T
UV/Vis バンド幅	0.5 nm
NIR バンド幅	2 nm
レスポンス	Quick
走査速度	400 nm/min
光源	自動
光源切換	340 nm
回折格子切換	850 nm
